# Flux, Flux Uncertainty, Sky Flux, Sensitivity Curve
2.681148033313077159e-11,4.309389332688173476e-09,5.650041793975295697e-12,6.917076293536592035e-02
2.505058184054386989e-11,4.029825201306886690e-09,5.280488473027848119e-12,1.393962126540089670e-02
2.350047874587600677e-11,3.773849956283002271e-09,4.951026216477373164e-12,1.249076756978817343e-01
2.208422078933325381e-11,3.552170843312324994e-09,4.656830947711130057e-12,2.267492815220317325e-03
2.083866622938683358e-11,3.350083193881878398e-09,4.393748419034138590e-12,3.342950509261646136e-02
1.973436747733138372e-11,3.170479473383799753e-09,4.158192891854923492e-12,9.532236103477270683e-02
1.873035089244018168e-11,3.010674085099335091e-09,3.947062388866178558e-12,6.607099839987175260e-02
1.782990977638656653e-11,2.867843900695091756e-09,3.757667627565865312e-12,3.100259553127023004e-02
1.701403122308086126e-11,2.735452804719448134e-09,3.587672277425554776e-12,2.423917862774018286e-02
1.630047808977919413e-11,2.617818960831332111e-09,3.435042612717105190e-12,1.076396693963985740e-01
1.563809930261703646e-11,2.513408581148315071e-09,3.298004980365071569e-12,3.292435422627664615e-02
1.507334757379408739e-11,2.423980697437564401e-09,3.175009783690673030e-12,6.417555284400867921e-02
1.453912185512810723e-11,2.339575485407295408e-09,3.064700911611062942e-12,9.550156213068121543e-05
1.407338249925954147e-11,2.262858909090550159e-09,2.965889729116293308e-12,4.837617637243196017e-02
1.364899438940084418e-11,2.195578108032682888e-09,2.877532896905704147e-12,8.400308945775310926e-03
1.327678470785715457e-11,2.132826958092255226e-09,2.798713412500979700e-12,7.961702677326175370e-02
1.295500654468160931e-11,2.081985153112627156e-09,2.728624367219093499e-12,1.001909288744717297e-01
1.264713967849642498e-11,2.034500532599512722e-09,2.666554997297778493e-12,2.408488191745091454e-03
1.239605907491411646e-11,1.992443933246158778e-09,2.611878676602340144e-12,7.485283974609295565e-02
1.216078054649522254e-11,1.952209870689533481e-09,2.564042555432667713e-12,1.022659696085179565e-01
1.198109180601671833e-11,1.923381884734701311e-09,2.522558597192057162e-12,1.688336414678460740e-01
1.181781653558980514e-11,1.894777529991166853e-09,2.486995803856270985e-12,2.529786483312587153e-01
1.165349492872525663e-11,1.874617861475408419e-09,2.456973453736269968e-12,6.046513149112856499e-03
1.154242796829147129e-11,1.854704498231774885e-09,2.432155202135183447e-12,8.555587352032342774e-02
1.144917569339163049e-11,1.841193238504633111e-09,2.412243918115713896e-12,5.225415356295077390e-02
1.136844677761274150e-11,1.828729381720773158e-09,2.396977149501660154e-12,4.903079876019048391e-03
1.132143852721145306e-11,1.821675300231959653e-09,2.386123124074700057e-12,9.428607442484509410e-03
1.129054207289446270e-11,1.811039631185451757e-09,2.379477208221665848e-12,1.614964096701706486e-01
1.127558892130555714e-11,1.812386694286751156e-09,2.376858755471546627e-12,5.222868245258871500e-02
1.129093426877019532e-11,1.814083054964639132e-09,2.378108286790750455e-12,1.123090663147957857e-01
1.131069912460896789e-11,1.819671267109616344e-09,2.383084952477421696e-12,3.351337567313741189e-02
1.134295168705652094e-11,1.824089252909151019e-09,2.391664232254927255e-12,1.742067293844667270e-02
1.141063671973100739e-11,1.835146380518276031e-09,2.403735835917120463e-12,5.686698077480151214e-02
1.147754125860324009e-11,1.846394135190573092e-09,2.419201771793532751e-12,1.649877528285944792e-02
1.156741356312537229e-11,1.860841810908666542e-09,2.437974554526819171e-12,2.106720179705771911e-02
1.167482195452093306e-11,1.875572049642853396e-09,2.459975527307528994e-12,9.773637080879012118e-02
1.179326618150772362e-11,1.894897028817031166e-09,2.485133276897157119e-12,8.657438180405134520e-02
1.192242193347107981e-11,1.916353274834611559e-09,2.513382122575463301e-12,4.826750609303295803e-02
1.208320348480111650e-11,1.942401291508969333e-09,2.544660662650055493e-12,9.234518429945895446e-02
1.223803237011979137e-11,1.968728308186322758e-09,2.578910364426582984e-12,2.856818690375648867e-02
1.242208764429357407e-11,1.999195978748562343e-09,2.616046265819375439e-12,3.727451007292847951e-02
1.261320152920069102e-11,2.027770820851605862e-09,2.655789780118443186e-12,9.795165316307255510e-02
1.281366250930380439e-11,2.058203459725385438e-09,2.697765336779021885e-12,1.439299474863933725e-01
1.301811182123825601e-11,2.090502728314672576e-09,2.741572184898006499e-12,1.419789007666859004e-01
1.322594805926643213e-11,2.125533836627146593e-09,2.786781157850396603e-12,8.109875648261670456e-02
1.344085729672238548e-11,2.159084449021658050e-09,2.832931809639781868e-12,8.924396928193982503e-02
1.366468740678625207e-11,2.196596343318421014e-09,2.879530259845247127e-12,6.267290774015804589e-02
1.390009646617810756e-11,2.235503281490396776e-09,2.926047848319635504e-12,9.166361958850717528e-02
1.410260140011766898e-11,2.269646444084639555e-09,2.971920709968259982e-12,6.290030776560620769e-03
1.431514055891692445e-11,2.300862935568183123e-09,3.016550384896876271e-12,7.043204868717373168e-02
1.453102593220303284e-11,2.337061857025574536e-09,3.059305579125109009e-12,8.411110206442984349e-02
1.470645900925430419e-11,2.366572015672017668e-09,3.099525185042507661e-12,6.581945950543615677e-03
1.487950150149115241e-11,2.392013471476583407e-09,3.136522658001078517e-12,4.626003274883178085e-02
1.504996484089643771e-11,2.417374200016362452e-09,3.169591825145671303e-12,1.301687111867929070e-01
1.517093406497534786e-11,2.440999317077462967e-09,3.198014174212719148e-12,2.514533481200901394e-03
1.528116188933622319e-11,2.458635826993834095e-09,3.221067633275809519e-12,8.715152069830405662e-03
1.536164176255904302e-11,2.469431975088734177e-09,3.238042123405207309e-12,5.026418094168533246e-02
1.542189151901270103e-11,2.480652061560102118e-09,3.248671581496436849e-12,4.930735622501703636e-02
1.544007046720688258e-11,2.482196521672286412e-09,3.253454295125465943e-12,6.343114786757632351e-02
1.544928496833751962e-11,2.481399121690632207e-09,3.252998764098086756e-12,1.424986828049586429e-01
1.541452013829561902e-11,2.480230830462499429e-09,3.247942317564559222e-12,2.395787148384428966e-02
1.538989361596030576e-11,2.471961948592255244e-09,3.238941497091156355e-12,1.629415858304395226e-01
1.529864509937633616e-11,2.458787566970758383e-09,3.226663547879212646e-12,3.275748902852158861e-02
1.524125990217328859e-11,2.450906716771085214e-09,3.211779135253900280e-12,4.618926174767586101e-02
1.517751938689492807e-11,2.436430273505565168e-09,3.194956360669919309e-12,1.815445382142598374e-01
1.508174456855077420e-11,2.426433007429311081e-09,3.176856114726532751e-12,4.209514952475491845e-02
1.500045020605883109e-11,2.411012856298998986e-09,3.158128774826664559e-12,1.146541369722588882e-01
1.490123274727468937e-11,2.398648112210758310e-09,3.139412232580150979e-12,1.013539130871854779e-02
1.480677641308583450e-11,2.379980672605021469e-09,3.121331220971695333e-12,5.103253385899663569e-02
1.473467741520818013e-11,2.370290641424290914e-09,3.104497903618857371e-12,3.775290963604086003e-02
1.466790918476643281e-11,2.357197113610092302e-09,3.089456104446995892e-12,1.008048766537738422e-01
1.460391909445017761e-11,2.347848068451905633e-09,3.076281432790302503e-12,7.684067308764155890e-02
1.453994196702858188e-11,2.339132885693093701e-09,3.064829738697429389e-12,1.340936996367239793e-02
1.449326233212591714e-11,2.332033772936367824e-09,3.054959970755870498e-12,5.129403626205686524e-03
1.446383004279121164e-11,2.321863131661367619e-09,3.046534911180192896e-12,1.513901811270052244e-01
1.442764093479989128e-11,2.321536293433744229e-09,3.039420538999270409e-12,3.076978220341734446e-02
1.438646396996003371e-11,2.313236000906635998e-09,3.033485455466228835e-12,2.209275394809128226e-02
1.438717581951472030e-11,2.312286774029033363e-09,3.028600368520241952e-12,1.230120797578311276e-01
1.436513434324357612e-11,2.314234595692772941e-09,3.024637633761522662e-12,1.759638923786924085e-08
1.433942088388334140e-11,2.305291404217402314e-09,3.021470849963445861e-12,6.314507549743210435e-02
1.432055867020288939e-11,2.304175746633324540e-09,3.018974507639870613e-12,6.036011682712413791e-05
1.433113659693911257e-11,2.302925881297617539e-09,3.017023689617034392e-12,1.278221367279455400e-01
1.431178786591265108e-11,2.301603236221441807e-09,3.015493822929876609e-12,5.097708651392571233e-02
1.429942908706405690e-11,2.300866982223979225e-09,3.014236905731578606e-12,2.756973479379105224e-03
1.431089864951655854e-11,2.297729084634379596e-09,3.011670800145526321e-12,1.862405298068082193e-01
1.426355773326640578e-11,2.295563731994634948e-09,3.003985698676452806e-12,3.551114933776634147e-02
1.418055093772111080e-11,2.278022767242637777e-09,2.987226859049509568e-12,1.118836314934872206e-01
1.403981576866724764e-11,2.259971563404277449e-09,2.957582012421157284e-12,1.504533015962013220e-02
1.383649076059510380e-11,2.221507572219904449e-09,2.911524359502256860e-12,1.925437579516822428e-01
1.350244719648264960e-11,2.170636333880606434e-09,2.845996943282795064e-12,5.042217900254032659e-02
1.309782078368066283e-11,2.106689858840540613e-09,2.758624980154522932e-12,6.132701830132927800e-02
1.257276835856528905e-11,2.021673639325545664e-09,2.647936319918228855e-12,7.729213326820309760e-02
1.193197693390565352e-11,1.916996457099012499e-09,2.513564238499735080e-12,1.070581396747641856e-01
1.119884819448419313e-11,1.801006229535096295e-09,2.356402680359947268e-12,1.156070079397171352e-01
1.033619832385160852e-11,1.662807990888739094e-09,2.178719066085683859e-12,1.501033722906203877e-02
9.423241575818066523e-12,1.514723815577111147e-09,1.985853848943819065e-12,6.478353649200693787e-02
8.478077526645257739e-12,1.364358071212439896e-09,1.785955594381338208e-12,2.974119266046212559e-02
7.537147915150362671e-12,1.212468429760002114e-09,1.586364553317977461e-12,8.829309243112476446e-02
6.613422779882008961e-12,1.063029353415115866e-09,1.393083188698583677e-12,8.606142797341272133e-02
5.750061083023940376e-12,9.260070260391494425e-10,1.210672470401354760e-12,1.770819397641047038e-02
4.954707806953850472e-12,7.962356968152717241e-10,1.042285731554556506e-12,1.624270653627831740e-01
4.233096532621005845e-12,6.790517094749786572e-10,8.898021974604618789e-13,2.852399937455378787e-01
3.580879487658269875e-12,5.756201580547102678e-10,7.540217163912509985e-13,1.012523773517039344e-01
3.017769305760434465e-12,4.849017486742255096e-10,6.348866133037948850e-13,1.642205663088833201e-01
2.528911202755469343e-12,4.064236812802684138e-10,5.317037846434930220e-13,1.861354149149150317e-01
2.107516648977660072e-12,3.381858430194215886e-10,4.433482714924702511e-13,2.326939509514341087e-01
1.754474414782103077e-12,2.814985166637582678e-10,3.684372088687141175e-13,3.229033301484086627e-01
1.454434724717602836e-12,2.336934362554460289e-10,3.054694200911127412e-13,2.485219244687833506e-01
1.207907125798465981e-12,1.930443829004819166e-10,2.529306570142547951e-13,6.513925835027352118e-01
1.001079980422839179e-12,1.599965988413544080e-10,2.093675852887857658e-13,7.084763555416068170e-01
8.314008136013037803e-13,1.323493391237430404e-10,1.734353030755607678e-13,1.026967666937192769e+00
6.904565929788341370e-13,1.099888360560259637e-10,1.439237866849273264e-13,1.031813283073432341e+00
5.773572788107050806e-13,9.128575531607871523e-11,1.197685160589950001e-13,1.635149462132357012e+00
4.840092798635784117e-13,7.644980655877432945e-11,1.000499461060850905e-13,1.864656956701479018e+00
4.072759597285497845e-13,6.416946255731710858e-11,8.398462583169733293e-14,2.110696174703711403e+00
3.455952631578330053e-13,5.410899924152672060e-11,7.090380195970983465e-14,2.681604936367525394e+00
2.968702203619959879e-13,4.606673628872579517e-11,6.025035232037732333e-14,3.704507220408017609e+00
2.566724643783494198e-13,3.938121317339820088e-11,5.157075341903976207e-14,4.823621504883762512e+00
2.230285745623763661e-13,3.397647977158277766e-11,4.449748267835870086e-14,5.579528307251360175e+00
1.977945124666501296e-13,2.958040761731135763e-11,3.873383811879694871e-14,7.627799547860075968e+00
1.747936073059074035e-13,2.595985069513790132e-11,3.404117711878605234e-14,8.321454306610187146e+00
1.566090891014844511e-13,2.307419255286994767e-11,3.022832963738495641e-14,9.304180533442799828e+00
1.414718385976687764e-13,2.073294572158489677e-11,2.714292509288472269e-14,9.974408449862577797e+00
1.301472474124042158e-13,1.884568836045316753e-11,2.466438060940401336e-14,1.142817621094081559e+01
1.195303280400266894e-13,1.734877476087827699e-11,2.269832275226359328e-14,1.116961323325882027e+01
1.111673525932043590e-13,1.617908260474136014e-11,2.117224939418071051e-14,1.082669801481762129e+01
1.057461251965618989e-13,1.532684612804498558e-11,2.003227982118915793e-14,1.141043040024305988e+01
1.013506770628989878e-13,1.469492350449092041e-11,1.923688994042598814e-14,1.125422272273716828e+01
9.879525352088582328e-14,1.429083404384115558e-11,1.871779047092241181e-14,1.149870611028633682e+01
9.676339172589071864e-14,1.403973056088809955e-11,1.839771457508023158e-14,1.109722814526665502e+01
9.616969370171181267e-14,1.390187534627158383e-11,1.821064688406126338e-14,1.157117768937120950e+01
9.548384008185693150e-14,1.381475857235377973e-11,1.809666593087926024e-14,1.146475933488992460e+01
9.502102301130285647e-14,1.374138560048651726e-11,1.799864627412609100e-14,1.152842426852417823e+01
9.472282378642251944e-14,1.363887483050386914e-11,1.786086351007439890e-14,1.207216606567249784e+01
9.370397276154580638e-14,1.346455151976946646e-11,1.762936010192916068e-14,1.233658077726354918e+01
9.162597122172066295e-14,1.317072812785758518e-11,1.725418291455198787e-14,1.225124905066117798e+01
8.910531278948022727e-14,1.277461668655253211e-11,1.672079121008573485e-14,1.264035094750012966e+01
8.601387029643677671e-14,1.228754128024362906e-11,1.607615582562043877e-14,1.311618819736812114e+01
8.222778203568712271e-14,1.174066152678405839e-11,1.537125041889900002e-14,1.312892071005880013e+01
7.855423434264389108e-14,1.119032888836374963e-11,1.465139022795953552e-14,1.341283225172678151e+01
7.503576814829077314e-14,1.066321912995727057e-11,1.395515112841635874e-14,1.374975845888098647e+01
7.185881352484652948e-14,1.015620657358488829e-11,1.331441615013317453e-14,1.431003848714019711e+01
6.892328178613318264e-14,9.732954050131795517e-12,1.275471987730177220e-14,1.444670351066124070e+01
6.679118399157673262e-14,9.379189770763225346e-12,1.228148978246811301e-14,1.522847489897783113e+01
6.470361309503127527e-14,9.056071848821147731e-12,1.188200714482671378e-14,1.549663776111917279e+01
6.282181405916971047e-14,8.816776748097415587e-12,1.154459571453479991e-14,1.530568381614074269e+01
6.129154468897638154e-14,8.591864060923963275e-12,1.125923441102566091e-14,1.539335690769515530e+01
5.974889856321089789e-14,8.409060809714711808e-12,1.101718846765122950e-14,1.489630726773635772e+01
5.936793670724691752e-14,8.258990608187270199e-12,1.081071897712671621e-14,1.648194665199847009e+01
5.910873176600475993e-14,8.117774119291743330e-12,1.063285467799153642e-14,1.815102703422738983e+01
5.844316726977320636e-14,8.004860916584785082e-12,1.047721422183021068e-14,1.858003343943342145e+01
5.836872602653919668e-14,7.904219054099619274e-12,1.033787042567776012e-14,2.022063877887666550e+01
5.780424139566756690e-14,7.803043929575483404e-12,1.020925042307919460e-14,2.063459766409241070e+01
5.776507284217071802e-14,7.709494813427717440e-12,1.008606737138936145e-14,2.226930769620584627e+01
5.756305619483620024e-14,7.613479914379676195e-12,9.963280580821952387e-15,2.356270729190547542e+01
5.699987674485924769e-14,7.517188885777045757e-12,9.836081688755649990e-15,2.400379681681983257e+01
5.671937505101477882e-14,7.410551202802899940e-12,9.699904869690501876e-15,2.537192003346777724e+01
5.608873624427096023e-14,7.309718390763947620e-12,9.550459090478517060e-15,2.594115983256885727e+01
5.538661772125800705e-14,7.170206589985876911e-12,9.383780130362965534e-15,2.679635808341581793e+01
5.455764825629010754e-14,7.019014636322737659e-12,9.196299528020997318e-15,2.764674559253383634e+01
5.363856656710930130e-14,6.873536412191109596e-12,8.984926846380276650e-15,2.851480072253277243e+01
5.257907615091793663e-14,6.683736115942677374e-12,8.747140730463409481e-15,2.967215536988231861e+01
5.121605327151190621e-14,6.485176206158322367e-12,8.481083264101282674e-15,3.038242501565030551e+01
4.977128998004395239e-14,6.246076225996199522e-12,8.185651218744320968e-15,3.160937644541750657e+01
4.796406948390835545e-14,6.005137601694505965e-12,7.860577059555668733e-15,3.213611403983288994e+01
4.578498612650714954e-14,5.739710156825665074e-12,7.506492167498427236e-15,3.202276214170253610e+01
4.359859491060755604e-14,5.429466766941463537e-12,7.126334885113892467e-15,3.271333690238228797e+01
4.175118906668599621e-14,5.143863672942385355e-12,6.736636820849366072e-15,3.479546831512142546e+01
3.944861096150414565e-14,4.856358109431534582e-12,6.358465048456867632e-15,3.496174637976702826e+01
3.723485850999069186e-14,4.589016874931594407e-12,6.008783509262202011e-15,3.475863234517428424e+01
3.561539042128246440e-14,4.357354097261681743e-12,5.700872970825697691e-15,3.612812388433633970e+01
3.421090969138491044e-14,4.159119755338196361e-12,5.445025608803597824e-15,3.716161455226210819e+01
3.315351825701733930e-14,4.014509345634107259e-12,5.242236802447241718e-15,3.819977385617470844e+01
3.246592985138343978e-14,3.883529427403179989e-12,5.083836553840685301e-15,4.009204834532828698e+01
3.171954400031401354e-14,3.793387316025286977e-12,4.962075229966495137e-15,4.023368809304997740e+01
3.105223026463239640e-14,3.720078406528011977e-12,4.870457243718953360e-15,3.979690926593600864e+01
3.091104052005472148e-14,3.670068251718223901e-12,4.803389235805430416e-15,4.149767577300454491e+01
3.061156577924788160e-14,3.632512915053797663e-12,4.755911159901085711e-15,4.155358743882894856e+01
3.051268518960724676e-14,3.608244657332899827e-12,4.723490793872373447e-15,4.222013587565677994e+01
3.058297150570504106e-14,3.586260239328208745e-12,4.701868806737198165e-15,4.360290571078255795e+01
3.055111093967886280e-14,3.578384458509367399e-12,4.686946235452487512e-15,4.396208931562833300e+01
3.055654371238036910e-14,3.572450284142347831e-12,4.674709576741217044e-15,4.444935981625388877e+01
3.062047136131503440e-14,3.557350582501204093e-12,4.661190978835965662e-15,4.548542389477973558e+01
3.057978239923427052e-14,3.549343934401462761e-12,4.642462389990615385e-15,4.591923805424491434e+01
3.072120870164339363e-14,3.528626883511229569e-12,4.614663061684673372e-15,4.801699066464502152e+01
3.036662879102492318e-14,3.493751404909113505e-12,4.574059546551807830e-15,4.751983142331122423e+01
3.005210553558673182e-14,3.449923036883166451e-12,4.517207612988098937e-15,4.794519906305630030e+01
2.958322030461833516e-14,3.399003956982205110e-12,4.443891379392714625e-15,4.799552911096412089e+01
2.926073728130166423e-14,3.331015363219965228e-12,4.357913390000450467e-15,4.976414404086031595e+01
2.876029746928945762e-14,3.256646223664397857e-12,4.263233081907590203e-15,5.076468754844403719e+01
2.811042020417308651e-14,3.182054162352392423e-12,4.163600941927295935e-15,5.090237159396620115e+01
2.745038996413087165e-14,3.109462525069935338e-12,4.062501549497785670e-15,5.099484177546265329e+01
2.689508084915450976e-14,3.031062962720529567e-12,3.963126636017366284e-15,5.193403359302836009e+01
2.643356968714340230e-14,2.959203666564244752e-12,3.868374757225236311e-15,5.337406181249554749e+01
2.592348168239066766e-14,2.890873464195921153e-12,3.780851892277110456e-15,5.412150487081583350e+01
2.544868812412695197e-14,2.827863296322631176e-12,3.701773939716047426e-15,5.473716318910508960e+01
2.504803163004620889e-14,2.774645909151943819e-12,3.630569608389475200e-15,5.548083691515397220e+01
2.471869211173484846e-14,2.725086975204615649e-12,3.566590204597307217e-15,5.648227192182260836e+01
2.426455636996763211e-14,2.680878520079288469e-12,3.509248208844377056e-15,5.598090242985471576e+01
